# energy [H], band-resolved DOS
   -1.025859    0.006118
   -1.024307    0.006148
   -1.022756    0.006177
   -1.021205    0.006207
   -1.019653    0.006238
   -1.018102    0.006268
   -1.016550    0.006299
   -1.014999    0.006329
   -1.013448    0.006360
   -1.011896    0.006392
   -1.010345    0.006423
   -1.008794    0.006455
   -1.007242    0.006487
   -1.005691    0.006519
   -1.004140    0.006552
   -1.002588    0.006585
   -1.001037    0.006617
   -0.999486    0.006651
   -0.997934    0.006684
   -0.996383    0.006718
   -0.994832    0.006752
   -0.993280    0.006786
   -0.991729    0.006821
   -0.990178    0.006855
   -0.988626    0.006890
   -0.987075    0.006926
   -0.985524    0.006961
   -0.983972    0.006997
   -0.982421    0.007033
   -0.980870    0.007070
   -0.979318    0.007106
   -0.977767    0.007143
   -0.976216    0.007181
   -0.974664    0.007218
   -0.973113    0.007256
   -0.971561    0.007294
   -0.970010    0.007333
   -0.968459    0.007371
   -0.966907    0.007410
   -0.965356    0.007450
   -0.963805    0.007489
   -0.962253    0.007529
   -0.960702    0.007570
   -0.959151    0.007610
   -0.957599    0.007651
   -0.956048    0.007693
   -0.954497    0.007734
   -0.952945    0.007776
   -0.951394    0.007819
   -0.949843    0.007861
   -0.948291    0.007904
   -0.946740    0.007948
   -0.945189    0.007992
   -0.943637    0.008036
   -0.942086    0.008080
   -0.940535    0.008125
   -0.938983    0.008170
   -0.937432    0.008216
   -0.935881    0.008262
   -0.934329    0.008308
   -0.932778    0.008355
   -0.931227    0.008402
   -0.929675    0.008450
   -0.928124    0.008498
   -0.926573    0.008546
   -0.925021    0.008595
   -0.923470    0.008644
   -0.921918    0.008693
   -0.920367    0.008744
   -0.918816    0.008794
   -0.917264    0.008845
   -0.915713    0.008896
   -0.914162    0.008948
   -0.912610    0.009000
   -0.911059    0.009053
   -0.909508    0.009106
   -0.907956    0.009160
   -0.906405    0.009214
   -0.904854    0.009269
   -0.903302    0.009324
   -0.901751    0.009379
   -0.900200    0.009435
   -0.898648    0.009492
   -0.897097    0.009549
   -0.895546    0.009607
   -0.893994    0.009665
   -0.892443    0.009724
   -0.890892    0.009783
   -0.889340    0.009843
   -0.887789    0.009903
   -0.886238    0.009964
   -0.884686    0.010025
   -0.883135    0.010087
   -0.881584    0.010150
   -0.880032    0.010213
   -0.878481    0.010277
   -0.876929    0.010341
   -0.875378    0.010406
   -0.873827    0.010472
   -0.872275    0.010538
   -0.870724    0.010605
   -0.869173    0.010672
   -0.867621    0.010740
   -0.866070    0.010809
   -0.864519    0.010878
   -0.862967    0.010948
   -0.861416    0.011019
   -0.859865    0.011091
   -0.858313    0.011163
   -0.856762    0.011236
   -0.855211    0.011309
   -0.853659    0.011383
   -0.852108    0.011458
   -0.850557    0.011534
   -0.849005    0.011611
   -0.847454    0.011688
   -0.845903    0.011766
   -0.844351    0.011845
   -0.842800    0.011925
   -0.841249    0.012005
   -0.839697    0.012086
   -0.838146    0.012169
   -0.836595    0.012251
   -0.835043    0.012335
   -0.833492    0.012420
   -0.831940    0.012505
   -0.830389    0.012592
   -0.828838    0.012679
   -0.827286    0.012767
   -0.825735    0.012857
   -0.824184    0.012947
   -0.822632    0.013038
   -0.821081    0.013130
   -0.819530    0.013223
   -0.817978    0.013317
   -0.816427    0.013412
   -0.814876    0.013508
   -0.813324    0.013605
   -0.811773    0.013703
   -0.810222    0.013802
   -0.808670    0.013902
   -0.807119    0.014003
   -0.805568    0.014106
   -0.804016    0.014209
   -0.802465    0.014314
   -0.800914    0.014420
   -0.799362    0.014527
   -0.797811    0.014635
   -0.796260    0.014745
   -0.794708    0.014855
   -0.793157    0.014967
   -0.791606    0.015080
   -0.790054    0.015195
   -0.788503    0.015311
   -0.786951    0.015428
   -0.785400    0.015546
   -0.783849    0.015666
   -0.782297    0.015787
   -0.780746    0.015910
   -0.779195    0.016034
   -0.777643    0.016160
   -0.776092    0.016287
   -0.774541    0.016415
   -0.772989    0.016545
   -0.771438    0.016677
   -0.769887    0.016810
   -0.768335    0.016945
   -0.766784    0.017081
   -0.765233    0.017219
   -0.763681    0.017359
   -0.762130    0.017501
   -0.760579    0.017644
   -0.759027    0.017789
   -0.757476    0.017935
   -0.755925    0.018084
   -0.754373    0.018234
   -0.752822    0.018387
   -0.751271    0.018541
   -0.749719    0.018697
   -0.748168    0.018855
   -0.746617    0.019015
   -0.745065    0.019178
   -0.743514    0.019342
   -0.741962    0.019508
   -0.740411    0.019677
   -0.738860    0.019848
   -0.737308    0.020021
   -0.735757    0.020196
   -0.734206    0.020374
   -0.732654    0.020553
   -0.731103    0.020736
   -0.729552    0.020921
   -0.728000    0.021108
   -0.726449    0.021298
   -0.724898    0.021490
   -0.723346    0.021685
   -0.721795    0.021883
   -0.720244    0.022083
   -0.718692    0.022286
   -0.717141    0.022492
   -0.715590    0.022701
   -0.714038    0.022912
   -0.712487    0.023127
   -0.710936    0.023345
   -0.709384    0.023566
   -0.707833    0.023789
   -0.706282    0.024017
   -0.704730    0.024247
   -0.703179    0.024481
   -0.701628    0.024718
   -0.700076    0.024959
   -0.698525    0.025203
   -0.696974    0.025450
   -0.695422    0.025702
   -0.693871    0.025957
   -0.692319    0.026216
   -0.690768    0.026479
   -0.689217    0.026746
   -0.687665    0.027017
   -0.686114    0.027292
   -0.684563    0.027571
   -0.683011    0.027854
   -0.681460    0.028142
   -0.679909    0.028435
   -0.678357    0.028732
   -0.676806    0.029033
   -0.675255    0.029340
   -0.673703    0.029651
   -0.672152    0.029968
   -0.670601    0.030289
   -0.669049    0.030616
   -0.667498    0.030947
   -0.665947    0.031285
   -0.664395    0.031628
   -0.662844    0.031976
   -0.661293    0.032331
   -0.659741    0.032691
   -0.658190    0.033057
   -0.656639    0.033430
   -0.655087    0.033809
   -0.653536    0.034194
   -0.651985    0.034586
   -0.650433    0.034984
   -0.648882    0.035390
   -0.647330    0.035803
   -0.645779    0.036223
   -0.644228    0.036650
   -0.642676    0.037085
   -0.641125    0.037528
   -0.639574    0.037979
   -0.638022    0.038438
   -0.636471    0.038905
   -0.634920    0.039381
   -0.633368    0.039866
   -0.631817    0.040360
   -0.630266    0.040863
   -0.628714    0.041375
   -0.627163    0.041897
   -0.625612    0.042429
   -0.624060    0.042971
   -0.622509    0.043524
   -0.620958    0.044087
   -0.619406    0.044662
   -0.617855    0.045247
   -0.616304    0.045845
   -0.614752    0.046454
   -0.613201    0.047075
   -0.611650    0.047709
   -0.610098    0.048356
   -0.608547    0.049016
   -0.606996    0.049690
   -0.605444    0.050377
   -0.603893    0.051079
   -0.602341    0.051796
   -0.600790    0.052528
   -0.599239    0.053276
   -0.597687    0.054040
   -0.596136    0.054820
   -0.594585    0.055617
   -0.593033    0.056432
   -0.591482    0.057264
   -0.589931    0.058116
   -0.588379    0.058986
   -0.586828    0.059876
   -0.585277    0.060787
   -0.583725    0.061718
   -0.582174    0.062671
   -0.580623    0.063646
   -0.579071    0.064644
   -0.577520    0.065666
   -0.575969    0.066712
   -0.574417    0.067783
   -0.572866    0.068880
   -0.571315    0.070005
   -0.569763    0.071156
   -0.568212    0.072337
   -0.566661    0.073547
   -0.565109    0.074788
   -0.563558    0.076060
   -0.562007    0.077365
   -0.560455    0.078704
   -0.558904    0.080078
   -0.557352    0.081488
   -0.555801    0.082936
   -0.554250    0.084423
   -0.552698    0.085950
   -0.551147    0.087518
   -0.549596    0.089130
   -0.548044    0.090787
   -0.546493    0.092491
   -0.544942    0.094243
   -0.543390    0.096045
   -0.541839    0.097899
   -0.540288    0.099808
   -0.538736    0.101773
   -0.537185    0.103796
   -0.535634    0.105880
   -0.534082    0.108028
   -0.532531    0.110241
   -0.530980    0.112524
   -0.529428    0.114877
   -0.527877    0.117306
   -0.526326    0.119812
   -0.524774    0.122399
   -0.523223    0.125071
   -0.521672    0.127831
   -0.520120    0.130683
   -0.518569    0.133632
   -0.517018    0.136682
   -0.515466    0.139837
   -0.513915    0.143102
   -0.512364    0.146483
   -0.510812    0.149986
   -0.509261    0.153615
   -0.507709    0.157377
   -0.506158    0.161279
   -0.504607    0.165328
   -0.503055    0.169531
   -0.501504    0.173896
   -0.499953    0.178432
   -0.498401    0.183147
   -0.496850    0.188051
   -0.495299    0.193155
   -0.493747    0.198468
   -0.492196    0.204004
   -0.490645    0.209774
   -0.489093    0.215792
   -0.487542    0.222073
   -0.485991    0.228631
   -0.484439    0.235483
   -0.482888    0.242647
   -0.481337    0.250143
   -0.479785    0.257990
   -0.478234    0.266212
   -0.476683    0.274832
   -0.475131    0.283877
   -0.473580    0.293375
   -0.472029    0.303356
   -0.470477    0.313854
   -0.468926    0.324905
   -0.467375    0.336548
   -0.465823    0.348827
   -0.464272    0.361788
   -0.462720    0.375482
   -0.461169    0.389967
   -0.459618    0.405303
   -0.458066    0.421558
   -0.456515    0.438808
   -0.454964    0.457134
   -0.453412    0.476628
   -0.451861    0.497390
   -0.450310    0.519533
   -0.448758    0.543181
   -0.447207    0.568473
   -0.445656    0.595565
   -0.444104    0.624629
   -0.442553    0.655861
   -0.441002    0.689481
   -0.439450    0.725738
   -0.437899    0.764912
   -0.436348    0.807322
   -0.434796    0.853332
   -0.433245    0.903359
   -0.431694    0.957879
   -0.430142    1.017442
   -0.428591    1.082683
   -0.427040    1.154341
   -0.425488    1.233274
   -0.423937    1.320491
   -0.422386    1.417176
   -0.420834    1.524730
   -0.419283    1.644821
   -0.417731    1.779441
   -0.416180    1.930988
   -0.414629    2.102363
   -0.413077    2.297102
   -0.411526    2.519544
   -0.409975    2.775053
   -0.408423    3.070311
   -0.406872    3.413709
   -0.405321    3.815872
   -0.403769    4.290366
   -0.402218    4.854662
   -0.400667    5.531433
   -0.399115    6.350312
   -0.397564    7.350218
   -0.396013    8.582337
   -0.394461   10.113620
   -0.392910   12.030083
   -0.391359   14.437614
   -0.389807   17.454354
   -0.388256   21.181388
   -0.386705   25.627609
   -0.385153   30.562561
   -0.383602   35.324059
   -0.382051   38.776134
   -0.380499   39.747217
   -0.378948   37.851369
   -0.377397   33.818691
   -0.375845   28.893413
   -0.374294   24.072790
   -0.372742   19.856405
   -0.371191   16.373933
   -0.369640   13.573314
   -0.368088   11.342309
   -0.366537    9.565062
   -0.364986    8.142061
   -0.363434    6.993931
   -0.361883    6.059381
   -0.360332    5.291682
   -0.358780    4.655310
   -0.357229    4.123179
   -0.355678    3.674520
   -0.354126    3.293291
   -0.352575    2.966998
   -0.351024    2.685828
   -0.349472    2.442012
   -0.347921    2.229344
   -0.346370    2.042831
   -0.344818    1.878424
   -0.343267    1.732815
   -0.341716    1.603282
   -0.340164    1.487574
   -0.338613    1.383814
   -0.337062    1.290429
   -0.335510    1.206096
   -0.333959    1.129692
   -0.332408    1.060262
   -0.330856    0.996990
   -0.329305    0.939174
   -0.327753    0.886209
   -0.326202    0.837571
   -0.324651    0.792804
   -0.323099    0.751511
   -0.321548    0.713343
   -0.319997    0.677995
   -0.318445    0.645196
   -0.316894    0.614710
   -0.315343    0.586324
   -0.313791    0.559851
   -0.312240    0.535123
   -0.310689    0.511992
   -0.309137    0.490322
   -0.307586    0.469994
   -0.306035    0.450900
   -0.304483    0.432943
   -0.302932    0.416033
   -0.301381    0.400092
   -0.299829    0.385047
   -0.298278    0.370833
   -0.296727    0.357389
   -0.295175    0.344661
   -0.293624    0.332599
   -0.292073    0.321158
   -0.290521    0.310295
   -0.288970    0.299973
   -0.287419    0.290157
   -0.285867    0.280814
   -0.284316    0.271913
   -0.282765    0.263429
   -0.281213    0.255334
   -0.279662    0.247606
   -0.278110    0.240223
   -0.276559    0.233165
   -0.275008    0.226413
   -0.273456    0.219949
   -0.271905    0.213758
   -0.270354    0.207824
   -0.268802    0.202134
   -0.267251    0.196673
   -0.265700    0.191431
   -0.264148    0.186395
   -0.262597    0.181555
   -0.261046    0.176900
   -0.259494    0.172423
   -0.257943    0.168113
   -0.256392    0.163962
   -0.254840    0.159963
   -0.253289    0.156108
   -0.251738    0.152391
