# energy [H], total DOS
   -1.025859    0.170745
   -1.024307    0.174551
   -1.022756    0.178495
   -1.021205    0.182584
   -1.019653    0.186825
   -1.018102    0.191226
   -1.016550    0.195796
   -1.014999    0.200543
   -1.013448    0.205476
   -1.011896    0.210606
   -1.010345    0.215943
   -1.008794    0.221499
   -1.007242    0.227285
   -1.005691    0.233316
   -1.004140    0.239605
   -1.002588    0.246166
   -1.001037    0.253018
   -0.999486    0.260175
   -0.997934    0.267659
   -0.996383    0.275488
   -0.994832    0.283684
   -0.993280    0.292272
   -0.991729    0.301275
   -0.990178    0.310723
   -0.988626    0.320645
   -0.987075    0.331072
   -0.985524    0.342041
   -0.983972    0.353590
   -0.982421    0.365760
   -0.980870    0.378598
   -0.979318    0.392152
   -0.977767    0.406477
   -0.976216    0.421634
   -0.974664    0.437688
   -0.973113    0.454711
   -0.971561    0.472783
   -0.970010    0.491992
   -0.968459    0.512436
   -0.966907    0.534223
   -0.965356    0.557473
   -0.963805    0.582319
   -0.962253    0.608912
   -0.960702    0.637419
   -0.959151    0.668028
   -0.957599    0.700949
   -0.956048    0.736421
   -0.954497    0.774714
   -0.952945    0.816133
   -0.951394    0.861027
   -0.949843    0.909793
   -0.948291    0.962887
   -0.946740    1.020833
   -0.945189    1.084236
   -0.943637    1.153799
   -0.942086    1.230336
   -0.940535    1.314804
   -0.938983    1.408324
   -0.937432    1.512221
   -0.935881    1.628068
   -0.934329    1.757739
   -0.932778    1.903489
   -0.931227    2.068037
   -0.929675    2.254692
   -0.928124    2.467504
   -0.926573    2.711466
   -0.925021    2.992782
   -0.923470    3.319223
   -0.921918    3.700601
   -0.920367    4.149409
   -0.918816    4.681692
   -0.917264    5.318217
   -0.915713    6.086070
   -0.914162    7.020776
   -0.912610    8.169062
   -0.911059    9.592222
   -0.909508   11.369628
   -0.907956   13.600793
   -0.906405   16.401575
   -0.904854   19.884211
   -0.903302   24.100762
   -0.901751   28.921551
   -0.900200   33.846998
   -0.898648   37.879846
   -0.897097   39.775865
   -0.895546   38.804955
   -0.893994   35.353054
   -0.892443   30.591732
   -0.890892   25.656957
   -0.889340   21.210916
   -0.887789   17.484063
   -0.886238   14.467505
   -0.884686   12.060158
   -0.883135   10.143881
   -0.881584    8.612786
   -0.880032    7.380857
   -0.878481    6.381142
   -0.876929    5.562456
   -0.875378    4.885880
   -0.873827    4.321781
   -0.872275    3.847485
   -0.870724    3.445523
   -0.869173    3.102327
   -0.867621    2.807274
   -0.866070    2.551971
   -0.864519    2.329737
   -0.862967    2.135208
   -0.861416    1.964045
   -0.859865    1.812713
   -0.858313    1.678309
   -0.856762    1.558437
   -0.855211    1.451103
   -0.853659    1.354641
   -0.852108    1.267650
   -0.850557    1.188943
   -0.849005    1.117516
   -0.847454    1.052506
   -0.845903    0.993177
   -0.844351    0.938894
   -0.842800    0.889106
   -0.841249    0.843337
   -0.839697    0.801171
   -0.838146    0.762243
   -0.836595    0.726236
   -0.835043    0.692867
   -0.833492    0.661888
   -0.831940    0.633081
   -0.830389    0.606249
   -0.828838    0.581219
   -0.827286    0.557836
   -0.825735    0.535960
   -0.824184    0.515468
   -0.822632    0.496247
   -0.821081    0.478197
   -0.819530    0.461226
   -0.817978    0.445253
   -0.816427    0.430202
   -0.814876    0.416005
   -0.813324    0.402602
   -0.811773    0.389935
   -0.810222    0.377954
   -0.808670    0.366611
   -0.807119    0.355864
   -0.805568    0.345674
   -0.804016    0.336003
   -0.802465    0.326819
   -0.800914    0.318092
   -0.799362    0.309793
   -0.797811    0.301896
   -0.796260    0.294377
   -0.794708    0.287213
   -0.793157    0.280385
   -0.791606    0.273872
   -0.790054    0.267657
   -0.788503    0.261725
   -0.786951    0.256058
   -0.785400    0.250643
   -0.783849    0.245467
   -0.782297    0.240517
   -0.780746    0.235781
   -0.779195    0.231249
   -0.777643    0.226911
   -0.776092    0.222756
   -0.774541    0.218777
   -0.772989    0.214964
   -0.771438    0.211310
   -0.769887    0.207807
   -0.768335    0.204449
   -0.766784    0.201230
   -0.765233    0.198141
   -0.763681    0.195180
   -0.762130    0.192338
   -0.760579    0.189613
   -0.759027    0.186998
   -0.757476    0.184489
   -0.755925    0.182083
   -0.754373    0.179774
   -0.752822    0.177559
   -0.751271    0.175435
   -0.749719    0.173397
   -0.748168    0.171443
   -0.746617    0.169570
   -0.745065    0.167774
   -0.743514    0.166054
   -0.741962    0.164405
   -0.740411    0.162827
   -0.738860    0.161316
   -0.737308    0.159870
   -0.735757    0.158487
   -0.734206    0.157166
   -0.732654    0.155903
   -0.731103    0.154698
   -0.729552    0.153549
   -0.728000    0.152454
   -0.726449    0.151411
   -0.724898    0.150419
   -0.723346    0.149477
   -0.721795    0.148583
   -0.720244    0.147737
   -0.718692    0.146936
   -0.717141    0.146180
   -0.715590    0.145467
   -0.714038    0.144797
   -0.712487    0.144169
   -0.710936    0.143581
   -0.709384    0.143034
   -0.707833    0.142525
   -0.706282    0.142055
   -0.704730    0.141622
   -0.703179    0.141226
   -0.701628    0.140866
   -0.700076    0.140542
   -0.698525    0.140252
   -0.696974    0.139997
   -0.695422    0.139777
   -0.693871    0.139589
   -0.692319    0.139435
   -0.690768    0.139313
   -0.689217    0.139223
   -0.687665    0.139165
   -0.686114    0.139139
   -0.684563    0.139144
   -0.683011    0.139180
   -0.681460    0.139247
   -0.679909    0.139344
   -0.678357    0.139471
   -0.676806    0.139629
   -0.675255    0.139816
   -0.673703    0.140033
   -0.672152    0.140280
   -0.670601    0.140557
   -0.669049    0.140863
   -0.667498    0.141198
   -0.665947    0.141564
   -0.664395    0.141958
   -0.662844    0.142383
   -0.661293    0.142836
   -0.659741    0.143320
   -0.658190    0.143833
   -0.656639    0.144376
   -0.655087    0.144949
   -0.653536    0.145553
   -0.651985    0.146186
   -0.650433    0.146850
   -0.648882    0.147545
   -0.647330    0.148271
   -0.645779    0.149028
   -0.644228    0.149817
   -0.642676    0.150637
   -0.641125    0.151490
   -0.639574    0.152375
   -0.638022    0.153293
   -0.636471    0.154244
   -0.634920    0.155229
   -0.633368    0.156248
   -0.631817    0.157302
   -0.630266    0.158390
   -0.628714    0.159515
   -0.627163    0.160675
   -0.625612    0.161873
   -0.624060    0.163107
   -0.622509    0.164380
   -0.620958    0.165691
   -0.619406    0.167042
   -0.617855    0.168433
   -0.616304    0.169865
   -0.614752    0.171338
   -0.613201    0.172853
   -0.611650    0.174412
   -0.610098    0.176016
   -0.608547    0.177664
   -0.606996    0.179358
   -0.605444    0.181100
   -0.603893    0.182890
   -0.602341    0.184729
   -0.600790    0.186618
   -0.599239    0.188559
   -0.597687    0.190553
   -0.596136    0.192602
   -0.594585    0.194705
   -0.593033    0.196866
   -0.591482    0.199085
   -0.589931    0.201364
   -0.588379    0.203704
   -0.586828    0.206108
   -0.585277    0.208576
   -0.583725    0.211111
   -0.582174    0.213715
   -0.580623    0.216389
   -0.579071    0.219135
   -0.577520    0.221956
   -0.575969    0.224854
   -0.574417    0.227830
   -0.572866    0.230888
   -0.571315    0.234030
   -0.569763    0.237259
   -0.568212    0.240576
   -0.566661    0.243986
   -0.565109    0.247490
   -0.563558    0.251092
   -0.562007    0.254796
   -0.560455    0.258604
   -0.558904    0.262520
   -0.557352    0.266547
   -0.555801    0.270690
   -0.554250    0.274953
   -0.552698    0.279339
   -0.551147    0.283853
   -0.549596    0.288499
   -0.548044    0.293283
   -0.546493    0.298209
   -0.544942    0.303282
   -0.543390    0.308509
   -0.541839    0.313894
   -0.540288    0.319444
   -0.538736    0.325166
   -0.537185    0.331065
   -0.535634    0.337149
   -0.534082    0.343426
   -0.532531    0.349902
   -0.530980    0.356586
   -0.529428    0.363488
   -0.527877    0.370614
   -0.526326    0.377976
   -0.524774    0.385584
   -0.523223    0.393446
   -0.521672    0.401576
   -0.520120    0.409985
   -0.518569    0.418685
   -0.517018    0.427689
   -0.515466    0.437011
   -0.513915    0.446666
   -0.512364    0.456670
   -0.510812    0.467038
   -0.509261    0.477790
   -0.507709    0.488942
   -0.506158    0.500515
   -0.504607    0.512530
   -0.503055    0.525009
   -0.501504    0.537975
   -0.499953    0.551455
   -0.498401    0.565475
   -0.496850    0.580063
   -0.495299    0.595251
   -0.493747    0.611072
   -0.492196    0.627559
   -0.490645    0.644751
   -0.489093    0.662688
   -0.487542    0.681413
   -0.485991    0.700973
   -0.484439    0.721416
   -0.482888    0.742797
   -0.481337    0.765173
   -0.479785    0.788606
   -0.478234    0.813163
   -0.476683    0.838917
   -0.475131    0.865946
   -0.473580    0.894334
   -0.472029    0.924174
   -0.470477    0.955566
   -0.468926    0.988617
   -0.467375    1.023447
   -0.465823    1.060184
   -0.464272    1.098968
   -0.462720    1.139955
   -0.461169    1.183312
   -0.459618    1.229226
   -0.458066    1.277898
   -0.456515    1.329554
   -0.454964    1.384440
   -0.453412    1.442831
   -0.451861    1.505028
   -0.450310    1.571368
   -0.448758    1.642223
   -0.447207    1.718012
   -0.445656    1.799199
   -0.444104    1.886306
   -0.442553    1.979919
   -0.441002    2.080696
   -0.439450    2.189382
   -0.437899    2.306821
   -0.436348    2.433970
   -0.434796    2.571921
   -0.433245    2.721921
   -0.431694    2.885402
   -0.430142    3.064013
   -0.428591    3.259660
   -0.427040    3.474556
   -0.425488    3.711281
   -0.423937    3.972856
   -0.422386    4.262836
   -0.420834    4.585426
   -0.419283    4.945626
   -0.417731    5.349415
   -0.416180    5.803983
   -0.414629    6.318037
   -0.413077    6.902184
   -0.411526    7.569442
   -0.409975    8.335900
   -0.408423    9.221606
   -0.406872   10.251732
   -0.405321   11.458152
   -0.403769   12.881569
   -0.402218   14.574392
   -0.400667   16.604640
   -0.399115   19.061212
   -0.397564   22.060867
   -0.396013   25.757161
   -0.394461   30.350946
   -0.392910   36.100273
   -0.391359   43.322804
   -0.389807   52.372965
   -0.388256   63.554006
   -0.386705   76.892609
   -0.385153   91.697408
   -0.383602  105.981842
   -0.382051  116.338009
   -0.380499  119.251201
   -0.378948  113.563600
   -0.377397  101.465509
   -0.375845   86.689618
   -0.374294   72.227695
   -0.372742   59.578484
   -0.371191   49.131012
   -0.369640   40.729101
   -0.368088   34.036034
   -0.366537   28.704240
   -0.364986   24.435183
   -0.363434   20.990743
   -0.361883   18.187039
   -0.360332   15.883892
   -0.358780   13.974723
   -0.357229   12.378280
   -0.355678   11.032254
   -0.354126    9.888518
   -0.352575    8.909588
   -0.351024    8.066030
   -0.349472    7.334532
   -0.347921    6.696481
   -0.346370    6.136896
   -0.344818    5.643628
   -0.343267    5.206753
   -0.341716    4.818109
   -0.340164    4.470938
   -0.338613    4.159611
   -0.337062    3.879412
   -0.335510    3.626367
   -0.333959    3.397110
   -0.332408    3.188777
   -0.330856    2.998917
   -0.329305    2.825425
   -0.327753    2.666488
   -0.326202    2.520531
   -0.324651    2.386188
   -0.323099    2.262266
   -0.321548    2.147721
   -0.319997    2.041635
   -0.318445    1.943200
   -0.316894    1.851700
   -0.315343    1.766502
   -0.313791    1.687042
   -0.312240    1.612820
   -0.310689    1.543385
   -0.309137    1.478337
   -0.307586    1.417316
   -0.306035    1.359996
   -0.304483    1.306085
   -0.302932    1.255318
   -0.301381    1.207458
   -0.299829    1.162285
   -0.298278    1.119605
   -0.296727    1.079236
   -0.295175    1.041015
   -0.293624    1.004794
   -0.292073    0.970434
   -0.290521    0.937811
   -0.288970    0.906811
   -0.287419    0.877326
   -0.285867    0.849261
   -0.284316    0.822526
   -0.282765    0.797037
   -0.281213    0.772720
   -0.279662    0.749503
   -0.278110    0.727321
   -0.276559    0.706113
   -0.275008    0.685823
   -0.273456    0.666400
   -0.271905    0.647793
   -0.270354    0.629959
   -0.268802    0.612856
   -0.267251    0.596443
   -0.265700    0.580684
   -0.264148    0.565545
   -0.262597    0.550993
   -0.261046    0.537000
   -0.259494    0.523536
   -0.257943    0.510575
   -0.256392    0.498093
   -0.254840    0.486065
   -0.253289    0.474471
   -0.251738    0.463290
